time,qa(t),qb(t),f(t),f_amplitude
0.0,0.05,0.05,0.46,0.46
0.1,0.05745516857675065,0.09890944953625458,0.45483469585057945,0.46
0.2,0.06972316033774721,0.1463353522366323,0.4394547849977788,0.46
0.30000000000000004,0.08663311847413178,0.19176950695733047,0.4142056670822314,0.46
0.4,0.10797101054091399,0.2347409084109518,0.379654382858452,0.46
0.5,0.13347678267603874,0.2748273766767385,0.33657687968195765,0.46
0.6000000000000001,0.16284435960038626,0.31165555720057214,0.2859405854045056,0.46
0.7000000000000001,0.19572164461777197,0.34490092079497375,0.2288826820301944,0.46
0.8,0.23172327602733572,0.374257365476143,0.16668456705926976,0.46
0.9,0.2704744326837561,0.3994034357619656,0.10074307606279909,0.46
1.0,0.31153200333655184,0.4202519088024317,0.03253911276714334,0.46
1.1,0.3544445775737567,0.4367384375602828,-0.03639560885109768,0.46
1.2000000000000002,0.3987616087880143,0.44879463914493517,-0.10451296355882016,0.46
1.3,0.4440334141765785,0.45634809481247973,-0.17028318242159207,0.46
1.4000000000000001,0.4898111747413132,0.45932234996568216,-0.2322292081159345,0.46
1.5,0.5356469352886921,0.45763691415398283,-0.28895986645246,0.46
1.6,0.5810936044297996,0.4512072610734967,-0.33920110914897306,0.46
1.7000000000000002,0.6257189753060945,0.4400087271292749,-0.38182462620820234,0.46
1.8,0.6690790112916887,0.42444491257331174,-0.41587318532784817,0.46
1.9000000000000001,0.7106932326224601,0.405072126772357,-0.4405821292744216,0.46
2.0,0.7501606117834666,0.3824693964870638,-0.4553965484362049,0.46
2.1,0.7871650776369343,0.35724230271061774,-0.4599837428968173,0.46
2.2,0.8214755154222566,0.33002298066873725,-0.4542406941580779,0.46
2.3000000000000003,0.8529457667559953,0.3014701198196734,-0.4382963787133802,0.46
2.4000000000000004,0.88151462963188,0.27226896385420996,-0.4125088715137075,0.46
2.5,0.9072058584208078,0.24313131069566327,-0.37745730437619796,0.46
2.6,0.93008806075735,0.21489634460679696,-0.33392885993206434,0.46
2.7,0.9502548422963273,0.188725709090638,-0.28290109320176393,0.46
2.8000000000000003,0.9679658263160626,0.16555062997015413,-0.22551997781672176,0.46
2.9000000000000004,0.9835404750708047,0.1460870096346925,-0.16307416992214033,0.46
3.0,0.9973527096510756,0.13084380985155797,-0.09696606773815866,0.46
3.1,1.0098309099836724,0.12012305176601266,-0.028680316719216163,0.46
3.2,1.0214579148316656,0.11401981590127666,0.04024953238214575,0.46
3.3000000000000003,1.0327194867180618,0.11238843475440788,0.10827546375904755,0.46
3.4000000000000004,1.0440045708230767,0.11486415829171347,0.1738697616479713,0.46
3.5,1.0557555835722776,0.12100571812875291,0.23555931953124673,0.46
3.6,1.068313800964224,0.13012672552769802,0.29195872293361197,0.46
3.7,1.081908457534256,0.1412859464806027,0.3418013628445488,0.46
3.8000000000000003,1.096656746354496,0.1532873017094028,0.38396788102601354,0.46
3.9000000000000004,1.1125638190338476,0.16467986666591636,0.41751130838527023,0.46
4.0,1.129518280826906,0.17393351839802612,0.4416783318591684,0.46
4.1000000000000005,1.1472480703419115,0.17996999691857432,0.45592621220149576,0.46
4.2,1.1653492776208099,0.18144674558970358,0.45993497273637096,0.46
4.3,1.183321294616888,0.17722762476960263,0.45361458534455584,0.46
4.4,1.2005673221432882,0.16643737872466155,0.4371069923009235,0.46
4.5,1.2163943698730069,0.14846163562947193,0.4107829185569753,0.46
4.6000000000000005,1.2300527820562388,0.12293769060509166,0.3752335460576641,0.46
4.7,1.2408179237045733,0.08996604324423263,0.33125723706942506,0.46
4.800000000000001,1.2479053413493133,0.05019813013976265,0.2798416046848368,0.46
4.9,1.250662041360605,0.004549184391798855,0.22214133316173104,0.46
5.0,1.2485805053176027,-0.04581557597837549,0.15945224620411189,0.46
5.1000000000000005,1.241298690008467,-0.0994809480283102,0.0931822055553944,0.46
5.2,1.2285946279071214,-0.15478247263377812,0.024819493458818478,0.46
5.300000000000001,1.2103836145136646,-0.20987910665165455,-0.0441006109531894,0.46
5.4,1.1867492002676063,-0.26306942086941215,-0.11203031071846471,0.46
5.5,1.157922622971476,-0.3129271944394603,-0.17744405122802204,0.46
5.6000000000000005,1.1242810618963768,-0.3583037657444883,-0.23887278089367536,0.46
5.7,1.0863476377819876,-0.39832803239746417,-0.29493694287961686,0.46
5.800000000000001,1.0447540486049787,-0.4324088944729841,-0.344377456974804,0.46
5.9,1.0000753116079362,-0.4603121973532257,-0.38608399582008296,0.46
6.0,0.9529200171263279,-0.4820584186353226,-0.4191199204669514,0.46
6.1000000000000005,0.903886163419813,-0.49778109286736405,-0.4427433152690692,0.46
6.2,0.8535544017874525,-0.5077227077080925,-0.4564236497081976,0.46
6.300000000000001,0.8024880365677051,-0.5122347039269038,-0.459853692965885,0.46
6.4,0.7512330026845553,-0.5117768665598447,-0.45295641366529826,0.46
6.5,0.700293072959301,-0.5067540194534993,-0.43588670982987693,0.46
6.6000000000000005,0.6500881561668549,-0.49735610049924045,-0.40902793020766604,0.46
6.7,0.6010219892924351,-0.4837516284384297,-0.3729832650848875,0.46
6.800000000000001,0.5534961815243294,-0.46608922913968115,-0.32856219993251157,0.46
6.9,0.5079102142538987,-0.44449763559886163,-0.27676233610772627,0.46
7.0,0.4646614410755737,-0.4190856879390902,-0.21874698687815655,0.46
7.1000000000000005,0.4241450877868566,-0.38994233341073825,-0.15581905191382542,0.46
7.2,0.38675103611906037,-0.3571336570056268,-0.089391756969454,0.46
7.300000000000001,0.3528285205473482,-0.32063538837158906,-0.020956915880742086,0.46
7.4,0.3227549993089331,-0.2804024470723414,0.04794857235822138,0.46
7.5,0.296905697559288,-0.23646128165728186,0.11577723903300705,0.46
7.6000000000000005,0.27563766148803953,-0.1889084264842776,0.18100579852002982,0.46
7.7,0.25928975831896817,-0.13791050171966684,0.2421693579976409,0.46
7.800000000000001,0.24818267631000726,-0.08370421333825567,0.29789431578078357,0.46
7.9,0.24261892475324415,-0.02659635312332148,0.34692920945352934,0.46
8.0,0.24288283397491925,0.033036201333390025,0.3881728210169464,0.46
8.1,0.24923575139873616,0.0947400786902466,0.4206989078712718,0.46
8.200000000000001,0.2617591531915132,0.1578545172238081,0.44377700422784055,0.46
8.3,0.28063106063773247,0.2220215493927977,0.45688882579590673,0.46
8.4,0.30602926185036045,0.2868726293516304,0.4597399093304622,0.46
8.5,0.33801857547988007,0.3518406014837832,0.4522662256418922,0.46
8.6,0.3765508507142911,0.4161597004017965,0.43463561755353625,0.46
8.700000000000001,0.42146496727911076,0.4788655509472748,0.40724403051372204,0.46
8.8,0.4724868354373706,0.5387951681908825,0.3707066205146069,0.46
8.9,0.5292293959896208,0.5945869574323501,0.32584393901478836,0.46
9.0,0.5911926202739282,0.6446807142004711,0.27366350512255033,0.46
9.1,0.6577635101658754,0.6873176242531012,0.21533717888877124,0.46
9.200000000000001,0.7282295899302611,0.7205808682797369,0.1521748438565616,0.46
9.3,0.8017588941961148,0.7425938693337636,0.08559498990083217,0.46
9.4,0.8768040563039794,0.7503748128052041,0.01709285700377933,0.46
9.5,0.9516140114751412,0.741239504450855,-0.051793144611564326,0.46
9.600000000000001,1.0243752991210013,0.7131801091650497,-0.11951598385832848,0.46
9.700000000000001,1.0932120628430686,0.6648651509796616,-0.18455475176880629,0.46
9.8,1.1561860504329697,0.5956395130641003,-0.24544881783099484,0.46
9.9,1.2112966138724415,0.5055244377253144,-0.30083063260095383,0.46
10.0,1.2564836749621435,0.39523998605314953,-0.3494564399150578,0.46
10.100000000000001,1.289861967364855,0.2683802374065135,-0.3902342089720542,0.46
10.200000000000001,1.3100074280389473,0.13164003095032872,-0.4222481589905749,0.46
10.3,1.3161548071155447,-0.008509038406314895,-0.44477932567118644,0.46
10.4,1.3082757507891667,-0.14584647081655777,-0.4573217075845551,0.46
10.5,1.2870787526597491,-0.27440281192299715,-0.45959362987267766,0.46
10.600000000000001,1.2537926020099806,-0.38847575776216314,-0.45154407005893665,0.46
10.700000000000001,1.2100509189625488,-0.48383639727727534,-0.4333538039029278,0.46
10.8,1.1578105400275767,-0.55805576778969,-0.4054313455666272,0.46
10.9,1.0991691563268307,-0.6102509008357557,-0.36840377326702095,0.46
11.0,1.036365276128862,-0.6410847646656729,-0.32310264645124825,0.46
11.100000000000001,0.9715490977558504,-0.6523448707505565,-0.2705453307641552,0.46
11.200000000000001,0.9065098729516683,-0.6460308442218344,-0.21191215020922677,0.46
11.3,0.8428749373759798,-0.6243606738606615,-0.14851987961608665,0.46
11.4,0.7820548555572242,-0.5896817506308777,-0.0817921727166332,0.46
11.5,0.7252434208926148,-0.5444708676790087,-0.013227589951426096,0.46
11.600000000000001,0.6734083563670967,-0.4910857644023428,0.05563405596709973,0.46
11.700000000000001,0.6272765565885217,-0.43083308212177124,0.1232462809285111,0.46
11.8,0.5874492159058251,-0.3649432576091939,0.18809066012348624,0.46
11.9,0.5544304458486042,-0.2945630528014995,0.2487109285914899,0.46
12.0,0.5286266368948657,-0.2207295240610127,0.3037456857922769,0.46
12.100000000000001,0.510346458471025,-0.14437002217549322,0.35195896972701535,0.46
12.200000000000001,0.49979360831311076,-0.06631107719728899,0.39226801398020167,0.46
12.3,0.497044592886447,0.012692291264530697,0.4237675643190545,0.46
12.4,0.5022288063377159,0.0920577863485838,0.445750208751963,0.46
12.5,0.5153903210775634,0.17108184439561014,0.45772226447673425,0.46
12.600000000000001,0.5364508167748954,0.24888574347659032,0.45941486493201067,0.46
12.700000000000001,0.5652095803568755,0.3244156033927397,0.45078999796059677,0.46
12.8,0.6013435060089282,0.39644238567551776,0.43204135948056005,0.46
12.9,0.6444070951747369,0.46356189358662103,0.40359000349249674,0.46
13.0,0.6938324565562444,0.5241947721179858,0.3660748861144143,0.46
13.100000000000001,0.7489324011014636,0.5765951146447111,0.3203385160048289,0.46
13.200000000000001,0.8089791144804395,0.6190759618281532,0.2674080334346404,0.46
13.3,0.872699991694802,0.6488788299439033,0.2084721429310231,0.46
13.4,0.9385222198306028,0.6632135217007075,0.14485441753644976,0.46
13.5,1.0047558063805793,0.6598049832337708,0.07798357421160289,0.46
13.600000000000001,1.0695935792441542,0.6368933041047566,0.009361387932572539,0.46
13.700000000000001,1.1311111867274326,0.593233717301789,-0.05947103493746686,0.46
13.8,1.1872670975432071,0.5280965992394495,-0.12696786657475642,0.46
13.9,1.2359026274444174,0.441267505919894,-0.19161327365525455,0.46
14.0,1.2749240932893535,0.33420268475025194,-0.25195545970316346,0.46
14.100000000000001,1.3024939256596213,0.21230252610563452,-0.30663926930988283,0.46
14.200000000000001,1.3172775544618551,0.08151148396349661,-0.3544366220029417,0.46
14.3,1.3186283789073805,-0.05243968872187771,-0.39427409228583454,0.46
14.4,1.3065877675122117,-0.18403394001936568,-0.425257016460496,0.46
14.5,1.2818507891832793,-0.3078589270292749,-0.4466895848451854,0.46
14.600000000000001,1.2454389650196656,-0.41805484957024186,-0.4580904681598587,0.46
14.700000000000001,1.1989007631383763,-0.510765011564394,-0.45920362714411395,0.46
14.8,1.1440270724320656,-0.5838165625427121,-0.4500040626469931,0.46
14.9,1.0827732905094296,-0.6364695347635229,-0.4306983770540177,0.46
15.0,1.0172567816543427,-0.6694141612397025,-0.4017201344430172,0.46
15.100000000000001,0.9494443947748183,-0.6843460370614507,-0.36372012366964934,0.46
15.200000000000001,0.8809633974379149,-0.683200289009172,-0.3175517430527234,0.46
15.3,0.8132942339035287,-0.6680516946412847,-0.26425183488777026,0.46
15.4,0.7477234353491478,-0.6410599417808838,-0.20501740020439327,0.46
15.5,0.6853436198698499,-0.6044696285157414,-0.14117871670371562,0.46
15.600000000000001,0.6270468402034459,-0.5604224170660418,-0.07416946358912527,0.46
15.700000000000001,0.5734991631673696,-0.5100434302741758,-0.005494524222200817,0.46
15.8,0.5252496930996101,-0.45433436699741114,0.06330381031326449,0.46
15.9,0.4827782930444513,-0.39421410365848486,0.13068047774400976,0.46
16.0,0.4464954448621057,-0.3304824544682228,0.19512234337501863,0.46
16.1,0.41674224922871417,-0.2638201714255388,0.25518218183263913,0.46
16.2,0.39378937102806616,-0.19478969698625995,0.3095111786264383,0.46
16.3,0.37781540983683104,-0.1238601683036342,0.3568892216148011,0.46
16.400000000000002,0.36900901098538635,-0.05142944063823138,0.39625230209320333,0.46
16.5,0.3675232120681119,0.022058437225346506,0.426716410135869,0.46
16.6,0.37344206199012103,0.09608301606798336,0.44759738755288014,0.46
16.7,0.3867806209672604,0.17004744623603119,0.458426292608166,0.46
16.8,0.40748496052611155,0.24327847764133048,0.45895993143991987,0.46
16.900000000000002,0.4354321635039883,0.31502645976119203,0.44918631967043726,0.46
17.0,0.47043032404893703,0.3844653416384056,0.42932495154940414,0.46
17.1,0.5122205597338766,0.4506851772124008,0.399821870586249,0.46
17.2,0.5604713739732423,0.5125224018082393,0.3613396523745381,0.46
17.3,0.6146684529720722,0.5685363383917611,0.3147425245725617,0.46
17.400000000000002,0.674111019614719,0.6171003131550177,0.2610769582133102,0.46
17.5,0.7379190573794374,0.6563979660259832,0.20154816622111402,0.46
17.6,0.805033310338392,0.6844232506685577,0.13749303692765538,0.46
17.7,0.8742152831576399,0.6989804344825581,0.0703501104422049,0.46
17.8,0.9440472410971512,0.6976840986037256,0.0016272721420569406,0.46
17.900000000000002,1.012934341014551,0.6779636463404362,-0.0671321111822078,0.46
18.0,1.0790677483393747,0.637827196583287,-0.13438385201756464,0.46
18.1,1.140134867697656,0.5769743747458548,-0.19861762125100374,0.46
18.2,1.193940864941785,0.49611579516030113,-0.2583908669053276,0.46
18.3,1.2385909663029209,0.39690403166106714,-0.3123612107466186,0.46
18.400000000000002,1.2724904583909764,0.2819336175848912,-0.3593165952053526,0.46
18.5,1.2943446853387655,0.1547410725788711,-0.39820250357639164,0.46
18.6,1.3031815682266124,0.020767182570909593,-0.4281456421907672,0.46
18.7,1.2986927426602322,-0.11238950758449973,-0.44847355270877515,0.46
18.8,1.281208457976298,-0.23821089332256618,-0.4587297140845581,0.46
18.900000000000002,1.2516009432178632,-0.3514886686936911,-0.45868379504458623,0.46
19.0,1.211284407134363,-0.44832432636348385,-0.44833682683150256,0.46
19.1,1.1622150381816065,-0.5261291576127698,-0.42792118004463237,0.46
19.200000000000003,1.1065581991489535,-0.5836097894412978,-0.397895346097286,0.46
19.3,1.0462052337721526,-0.6207673074496798,-0.3589336404880645,0.46
19.400000000000002,0.9831236673013025,-0.6384971407947172,-0.311911059128497,0.46
19.5,0.9191294176540397,-0.6383968378856295,-0.25788362782124885,0.46
19.6,0.8558846354574408,-0.6227655464954999,-0.19806468619724832,0.46
19.700000000000003,0.7948914438700717,-0.5945496506525016,-0.1337976387233854,0.46
19.8,0.7373114743659047,-0.5557522413833917,-0.0665257847343911,0.46
19.900000000000002,0.684071163443812,-0.5078556716517377,0.002240094958655388,0.46
20.0,0.6359912147454188,-0.45242849846946187,0.07095566694828867,0.46
20.1,0.593763199626064,-0.3908819241323529,0.1380777276296066,0.46
20.200000000000003,0.5579495571548119,-0.3244697962200795,0.20209886022628193,0.46
20.3,0.5289795435577911,-0.2542705200219571,0.2615812881215646,0.46
20.400000000000002,0.5071747313960093,-0.18102023722824678,0.315189164221434,0.46
20.5,0.4928283091506824,-0.10533697548051432,0.3617185712004106,0.46
20.6,0.48615803902395927,-0.02789549701200783,0.400124558889197,0.46
20.700000000000003,0.48730035526430937,0.050572806385349056,0.42954461160269874,0.46
20.8,0.4963103641665189,0.12927991336096573,0.44931801838284047,0.46
20.900000000000002,0.5131618440716937,0.20738117300559228,0.45900071114227664,0.46
21.0,0.537747245367256,0.28397530485130107,0.45837523747627745,0.46
21.1,0.5698861913622062,0.3581520188056384,0.44745564417493966,0.46
21.200000000000003,0.609332530816258,0.42882574070557167,0.4264871617625648,0.46
21.3,0.6556422481088668,0.494268336193957,0.3959406971487697,0.46
21.400000000000002,0.7081685291259511,0.5526062584687078,0.3565022580745096,0.46
21.5,0.7660654516000139,0.6018648305107551,0.3090575468571624,0.46
21.6,0.8282879851101581,0.6399682450840634,0.25467206942593856,0.46
21.700000000000003,0.8935919910820718,0.6647395647356175,0.19456720635581584,0.46
21.8,0.9605342227880346,0.6739007217954307,0.13009278329295035,0.46
21.900000000000002,1.027472325346925,0.6650725183765428,0.06269675678072516,0.46
22.0,1.0925648357242033,0.6357746263750198,-0.006107303722607361,0.46
22.1,1.1537730949178437,0.583788785653018,-0.07477420735089896,0.46
22.200000000000003,1.2087349363818694,0.5094139124380238,-0.14176184348571239,0.46
22.3,1.255098757661678,0.4143790250209739,-0.20556581423623785,0.46
22.400000000000002,1.2909325743235445,0.30147853418857656,-0.26475321997261786,0.46
22.5,1.3147374594126346,0.17461710456303348,-0.31799483916248933,0.46
22.6,1.325444816368823,0.038853915026689015,-0.36409497982097017,0.46
22.700000000000003,1.3224834167808548,-0.09893490867755131,-0.4020183321748729,0.46
22.8,1.3059706100845705,-0.231612070683538,-0.430913219488228,0.46
22.900000000000002,1.2766207546464927,-0.35332005301300434,-0.45013072488565853,0.46
23.0,1.2357265649877835,-0.4595122763021483,-0.45923926462642145,0.46
23.1,1.1851547423398807,-0.5469544489732265,-0.4580342805447857,0.46
23.200000000000003,1.1269411196764718,-0.6139784422435,-0.44654283398543315,0.46
23.3,1.0630793470615976,-0.6605385040100087,-0.42502299806399835,0.46
23.400000000000002,0.9955423010465283,-0.6874951280867012,-0.39395806190126315,0.46
23.5,0.9261683457538415,-0.6965349515901147,-0.3540456769914139,0.46
23.6,0.8566613328774031,-0.6901707549393823,-0.30618218945352693,0.46
23.700000000000003,0.7885121805540181,-0.671162580422728,-0.251442510030151,0.46
23.8,0.7228303007064979,-0.6413057797657514,-0.19105597390938617,0.46
23.900000000000002,0.6605739098699379,-0.6024382672195653,-0.1263787325068574,0.46
24.0,0.6025639761036389,-0.5562067897497398,-0.05886329722860615,0.46
24.1,0.5494833510780371,-0.5040588606166916,0.00997408080366353,0.46
24.200000000000003,0.5018767734675933,-0.4472414827118607,0.07858746248392207,0.46
24.3,0.46016088396556687,-0.38661377832378785,0.14543593918130832,0.46
24.400000000000002,0.4246790933756842,-0.3226958975570117,0.2090182382259638,0.46
24.5,0.39572780290675,-0.2560073997268235,0.2679064382566492,0.46
24.6,0.37355644673472255,-0.18705648693784271,0.3207780372561042,0.46
24.700000000000003,0.3583674920027211,-0.11634000408403355,0.36644565309520055,0.46
24.8,0.35031643882102226,-0.04434343884869779,0.40388368957573273,0.46
24.900000000000002,0.34951182026705996,0.02845907829553246,0.432251369109966,0.46
25.0,0.35599566527461557,0.10153035644970929,0.4509116147726498,0.46
25.1,0.369746026537598,0.17422041044900205,0.45944535767530303,0.46
25.200000000000003,0.3907726797191139,0.24612754023990363,0.4576609483499896,0.46
25.3,0.4189872207053172,0.31668054189059036,0.4455984607831983,0.46
25.400000000000002,0.45419299492314047,0.385103800873862,0.4235287924404991,0.46
25.5,0.49608509734028705,0.4504172920671241,0.3919475804934871,0.46
25.6,0.544250372465241,0.5114365797524079,0.35156407087743685,0.46
25.700000000000003,0.5981674143472573,0.5667728176163529,0.30328519015664757,0.46
25.8,0.6572065665763654,0.6148327487502152,0.24819517790901524,0.46
25.900000000000002,0.7206299222833767,0.6538187056498725,0.1875312370426021,0.46
26.0,0.7876194062158588,0.6818988206552411,0.12265574888557114,0.46
26.1,0.856925347080174,0.6968897300214135,0.05502567703867209,0.46
26.200000000000003,0.9268668017230741,0.6962771868843305,-0.01384015288619131,0.46
26.3,0.9957064346780669,0.6781117379571052,-0.08239516281483011,0.46
26.400000000000002,1.0616574708628088,0.6410279253768539,-0.14909975502007927,0.46
26.5,1.1228836955790893,0.584244286704702,-0.21245588816757716,0.46
26.6,1.1774994545128488,0.5075633549257734,-0.27104072009455255,0.46
26.700000000000003,1.2235700070512285,0.4113732418197063,-0.3235385617773237,0.46
